399.71998,1.54993
399.47889,1.54344
399.23781,1.54255
398.99672,1.55004
398.75564,1.56325
398.51455,1.57479
398.27347,1.57686
398.03238,1.56778
397.79129,1.55504
397.55021,1.55042
397.30912,1.55961
397.06804,1.57600
396.82695,1.58567
396.58587,1.58007
396.34478,1.56368
396.10369,1.54903
395.86261,1.54582
395.62152,1.55512
395.38044,1.57107
395.13935,1.58575
394.89827,1.59249
394.65718,1.58816
394.41610,1.57660
394.17501,1.56850
393.93392,1.57294
393.69284,1.58807
393.45175,1.60094
393.21067,1.59761
392.96958,1.57472
392.72850,1.54106
392.48741,1.50792
392.24632,1.48219
392.00524,1.46781
391.76415,1.46739
391.52307,1.47811
391.28198,1.48857
391.04090,1.48412
390.79981,1.45714
390.55872,1.41282
390.31764,1.36584
390.07655,1.33140
389.83547,1.31630
389.59438,1.31645
389.35330,1.32288
389.11221,1.33097
388.87113,1.34378
388.63004,1.36750
388.38895,1.40424
388.14787,1.44675
387.90678,1.47799
387.66570,1.48046
387.42461,1.45239
387.18353,1.41191
386.94244,1.38131
386.70135,1.37053
386.46027,1.37539
386.21918,1.38625
385.97810,1.39506
385.73701,1.39687
385.49593,1.39041
385.25484,1.38016
385.01376,1.37421
384.77267,1.37505
384.53158,1.37473
384.29050,1.36278
384.04941,1.33762
383.80833,1.30783
383.56724,1.28381
383.32616,1.26952
383.08507,1.25949
382.84398,1.24217
382.60290,1.20945
382.36181,1.16445
382.12073,1.11889
381.87964,1.08501
381.63856,1.07113
381.39747,1.08176
381.15639,1.11698
380.91530,1.16979
380.67421,1.22494
380.43313,1.26423
380.19204,1.27744
379.95096,1.27032
379.70987,1.25992
379.46879,1.26041
379.22770,1.27323
378.98661,1.28916
378.74553,1.29835
378.50444,1.29852
378.26336,1.29564
378.02227,1.29912
377.78119,1.31586
377.54010,1.34499
377.29902,1.37601
377.05793,1.39465
376.81684,1.39431
376.57576,1.38165
376.33467,1.36921
376.09359,1.36304
375.85250,1.35913
375.61142,1.35353
375.37033,1.35198
375.12924,1.36335
374.88816,1.38684
374.64707,1.41015
374.40599,1.41987
374.16490,1.41235
373.92382,1.39451
373.68273,1.37611
373.44164,1.36368
373.20056,1.35841
372.95947,1.35664
372.71839,1.35444
372.47730,1.35359
372.23622,1.35974
371.99513,1.37385
371.75405,1.38881
371.51296,1.39717
371.27187,1.39981
371.03079,1.40405
370.78970,1.41477
370.54862,1.42971
370.30753,1.44278
370.06645,1.44968
369.82536,1.44973
369.58427,1.44536
369.34319,1.44112
369.10210,1.44183
368.86102,1.45150
368.61993,1.47138
368.37885,1.49665
368.13776,1.51648
367.89668,1.52196
367.65559,1.51498
367.41450,1.50744
367.17342,1.51109
366.93233,1.52763
366.69125,1.54740
366.45016,1.55783
366.20908,1.55310
365.96799,1.53605
365.72690,1.51409
365.48582,1.49481
365.24473,1.48231
365.00365,1.47542
364.76256,1.47067
364.52148,1.46773
364.28039,1.46986
364.03931,1.47892
363.79822,1.49207
363.55713,1.50401
363.31605,1.51124
363.07496,1.51287
362.83388,1.50873
362.59279,1.49905
362.35171,1.48594
362.11062,1.47296
361.86953,1.46171
361.62845,1.45014
361.38736,1.43597
361.14628,1.42169
360.90519,1.41349
360.66411,1.41451
360.42302,1.42167
360.18194,1.43074
359.94085,1.44283
359.69976,1.46356
359.45868,1.49547
359.21759,1.53140
358.97651,1.55610
358.73542,1.55729
358.49434,1.53586
358.25325,1.50410
358.01216,1.47561
357.77108,1.45805
357.52999,1.45183
357.28891,1.45087
357.04782,1.44574
356.80674,1.43138
356.56565,1.41242
356.32457,1.39953
356.08348,1.40027
355.84239,1.41228
355.60131,1.42429
355.36022,1.42501
355.11914,1.41219
354.87805,1.39368
354.63697,1.38018
354.39588,1.37866
354.15479,1.39111
353.91371,1.41539
353.67262,1.44537
353.43154,1.47276
353.19045,1.49215
352.94937,1.50432
352.70828,1.51261
352.46719,1.51803
352.22611,1.51941
351.98502,1.51571
351.74394,1.50582
351.50285,1.48870
351.26177,1.46672
351.02068,1.44767
350.77960,1.44059
350.53851,1.44834
350.29742,1.46398
350.05634,1.47609
349.81525,1.47992
349.57417,1.48196
349.33308,1.49058
349.09200,1.50429
348.85091,1.51120
348.60982,1.49954
348.36874,1.46873
348.12765,1.43040
347.88657,1.40052
347.64548,1.39004
347.40440,1.39947
347.16331,1.41990
346.92223,1.43929
346.68114,1.44903
346.44005,1.44803
346.19897,1.44271
345.95788,1.44183
345.71680,1.45046
345.47571,1.46740
345.23463,1.48619
344.99354,1.49758
344.75245,1.49477
344.51137,1.47980
344.27028,1.46223
344.02920,1.45060
343.78811,1.44751
343.54703,1.45117
343.30594,1.45812
343.06486,1.46392
342.82377,1.46377
342.58268,1.45544
342.34160,1.44130
342.10051,1.42576
341.85943,1.41113
341.61834,1.39795
341.37726,1.38834
341.13617,1.38570
340.89508,1.39052
340.65400,1.39886
340.41291,1.40638
340.17183,1.41240
339.93074,1.41864
339.68966,1.42502
339.44857,1.42844
339.20749,1.42517
338.96640,1.41370
338.72531,1.39643
338.48423,1.37845
338.24314,1.36450
338.00206,1.35690
337.76097,1.35442
337.51989,1.35342
337.27880,1.35102
337.03771,1.34746
336.79663,1.34596
336.55554,1.35133
336.31446,1.36801
336.07337,1.39624
335.83229,1.42839
335.59120,1.45034
335.35012,1.45042
335.10903,1.43046
334.86794,1.40627
334.62686,1.39463
334.38577,1.40004
334.14469,1.41304
333.90360,1.41880
333.66252,1.40891
333.42143,1.38742
333.18034,1.36606
332.93926,1.35398
332.69817,1.35232
332.45709,1.35656
332.21600,1.36046
331.97492,1.35807
331.73383,1.34628
331.49274,1.32801
331.25166,1.31226
331.01057,1.31000
330.76949,1.32746
330.52840,1.36090
330.28732,1.39702
330.04623,1.41950
329.80515,1.41899
329.56406,1.40015
329.32297,1.37725
329.08189,1.36222
328.84080,1.35817
328.59972,1.36097
328.35863,1.36249
328.11755,1.35490
327.87646,1.33755
327.63537,1.31993
327.39429,1.31314
327.15320,1.31864
326.91212,1.32713
326.67103,1.32882
326.42995,1.32361
326.18886,1.31981
325.94778,1.32439
325.70669,1.33699
325.46560,1.35189
325.22452,1.36269
324.98343,1.36558
324.74235,1.36055
324.50126,1.35071
324.26018,1.34079
324.01909,1.33486
323.77800,1.33294
323.53692,1.33001
323.29583,1.32034
323.05475,1.30344
322.81366,1.28510
322.57258,1.27253
322.33149,1.26925
322.09041,1.27411
321.84932,1.28368
321.60823,1.29411
321.36715,1.30226
321.12606,1.30746
320.88498,1.31148
320.64389,1.31600
320.40281,1.32179
320.16172,1.33065
319.92063,1.34542
319.67955,1.36546
319.43846,1.38394
319.19738,1.39314
318.95629,1.39153
318.71521,1.38264
318.47412,1.36886
318.23304,1.35081
317.99195,1.33169
317.75086,1.31749
317.50978,1.31130
317.26869,1.30918
317.02761,1.30364
316.78652,1.29220
316.54544,1.28106
316.30435,1.27852
316.06326,1.28563
315.82218,1.29416
315.58109,1.29445
315.34001,1.28513
315.09892,1.27368
314.85784,1.26781
314.61675,1.26858
314.37566,1.27165
314.13458,1.27306
313.89349,1.27332
313.65241,1.27520
313.41132,1.27852
313.17024,1.28027
312.92915,1.27995
312.68807,1.28136
312.44698,1.28819
312.20589,1.29962
311.96481,1.31119
311.72372,1.31930
311.48264,1.32337
311.24155,1.32487
311.00047,1.32577
310.75938,1.32799
310.51829,1.33190
310.27721,1.33443
310.03612,1.32971
309.79504,1.31437
309.55395,1.29271
309.31287,1.27460
309.07178,1.26761
308.83070,1.27197
308.58961,1.28261
308.34852,1.29489
308.10744,1.30672
307.86635,1.31709
307.62527,1.32588
307.38418,1.33407
307.14310,1.34192
306.90201,1.34790
306.66092,1.35034
306.41984,1.34932
306.17875,1.34663
305.93767,1.34448
305.69658,1.34418
305.45550,1.34610
305.21441,1.35021
304.97333,1.35653
304.73224,1.36496
304.49115,1.37498
304.25007,1.38573
304.00898,1.39616
303.76790,1.40458
303.52681,1.40852
303.28573,1.40705
303.04464,1.40407
302.80355,1.40677
302.56247,1.41841
302.32138,1.43438
302.08030,1.44630
301.83921,1.44887
301.59813,1.44269
301.35704,1.43184
301.11596,1.42034
300.87487,1.41176
300.63378,1.40997
300.39270,1.41715
300.15161,1.43012
299.91053,1.44108
299.66944,1.44493
299.42836,1.44394
299.18727,1.44276
298.94618,1.44252
298.70510,1.44160
298.46401,1.43782
298.22293,1.42853
297.98184,1.41332
297.74076,1.39761
297.49967,1.38972
297.25859,1.39355
297.01750,1.40589
296.77641,1.42115
296.53533,1.43598
296.29424,1.44800
296.05316,1.45353
295.81207,1.45067
295.57099,1.44307
295.32990,1.43714
295.08881,1.43623
294.84773,1.43937
294.60664,1.44375
294.36556,1.44657
294.12447,1.44646
293.88339,1.44451
293.64230,1.44303
293.40121,1.44367
293.16013,1.44693
292.91904,1.45316
292.67796,1.46339
292.43687,1.47811
292.19579,1.49446
291.95470,1.50601
291.71362,1.50738
291.47253,1.49826
291.23144,1.48210
290.99036,1.46312
290.74927,1.44579
290.50819,1.43451
290.26710,1.43103
290.02602,1.43282
289.78493,1.43467
289.54384,1.43230
289.30276,1.42499
289.06167,1.41575
288.82059,1.40877
288.57950,1.40686
288.33842,1.41089
288.09733,1.42001
287.85625,1.43121
287.61516,1.43955
287.37407,1.44103
287.13299,1.43636
286.89190,1.43098
286.65082,1.43038
286.40973,1.43580
286.16865,1.44448
285.92756,1.45227
285.68647,1.45546
285.44539,1.45213
285.20430,1.44374
284.96322,1.43438
284.72213,1.42823
284.48105,1.42752
284.23996,1.43180
283.99888,1.43829
283.75779,1.44330
283.51670,1.44398
283.27562,1.43994
283.03453,1.43405
282.79345,1.43120
282.55236,1.43480
282.31128,1.44400
282.07019,1.45535
281.82910,1.46643
281.58802,1.47610
281.34693,1.48198
281.10585,1.48157
280.86476,1.47640
280.62368,1.47234
280.38259,1.47409
280.14151,1.48050
279.90042,1.48626
279.65933,1.48731
279.41825,1.48366
279.17716,1.47723
278.93608,1.46915
278.69499,1.46035
278.45391,1.45217
278.21282,1.44498
277.97173,1.43852
277.73065,1.43507
277.48956,1.43950
277.24848,1.45457
277.00739,1.47615
276.76631,1.49474
276.52522,1.50416
276.28414,1.50778
276.04305,1.51372
275.80196,1.52341
275.56088,1.52752
275.31979,1.51554
275.07871,1.48872
274.83762,1.46100
274.59654,1.44721
274.35545,1.45074
274.11436,1.46237
273.87328,1.46979
273.63219,1.46766
273.39111,1.45932
273.15002,1.45118
272.90894,1.44758
272.66785,1.44996
272.42676,1.45819
272.18568,1.47062
271.94459,1.48251
271.70351,1.48692
271.46242,1.47967
271.22134,1.46344
270.98025,1.44635
270.73917,1.43749
270.49808,1.44315
270.25699,1.46394
270.01591,1.49216
269.77482,1.51336
269.53374,1.51482
269.29265,1.49552
269.05157,1.46696
268.81048,1.44284
268.56939,1.42903
268.32831,1.42313
268.08722,1.42053
267.84614,1.41837
267.60505,1.41436
267.36397,1.40548
267.12288,1.39067
266.88180,1.37374
266.64071,1.36089
266.39962,1.35586
266.15854,1.35952
265.91745,1.37263
265.67637,1.39573
265.43528,1.42526
265.19420,1.45272
264.95311,1.47031
264.71202,1.47687
264.47094,1.47648
264.22985,1.47291
263.98877,1.46763
263.74768,1.46176
263.50660,1.45641
263.26551,1.45072
263.02443,1.44273
262.78334,1.43319
262.54225,1.42583
262.30117,1.42183
262.06008,1.41726
261.81900,1.40952
261.57791,1.40366
261.33683,1.40806
261.09574,1.42407
260.85465,1.44244
260.61357,1.45050
260.37248,1.44343
260.13140,1.42828
259.89031,1.41690
259.64923,1.41523
259.40814,1.42055
259.16706,1.42799
258.92597,1.43614
258.68488,1.44474
258.44380,1.45048
258.20271,1.44883
257.96163,1.43865
257.72054,1.42236
257.47946,1.40328
257.23837,1.38599
256.99728,1.37586
256.75620,1.37426
256.51511,1.37582
256.27403,1.37391
256.03294,1.36857
255.79186,1.36579
255.55077,1.36932
255.30968,1.37649
255.06860,1.38183
254.82751,1.38171
254.58643,1.37488
254.34534,1.36115
254.10426,1.34229
253.86317,1.32370
253.62209,1.31214
253.38100,1.31007
253.13991,1.31349
252.89883,1.31569
252.65774,1.31277
252.41666,1.30565
252.17557,1.29771
251.93449,1.29153
251.69340,1.28793
251.45231,1.28731
251.21123,1.29069
250.97014,1.29868
250.72906,1.30900
250.48797,1.31652
250.24689,1.31725
250.00580,1.31188
249.76472,1.30389
249.52363,1.29510
249.28254,1.28543
249.04146,1.27638
248.80037,1.27175
248.55929,1.27357
248.31820,1.27847
248.07712,1.27994
247.83603,1.27454
247.59494,1.26520
247.35386,1.25803
247.11277,1.25684
246.87169,1.26083
246.63060,1.26579
246.38952,1.26714
246.14843,1.26266
245.90735,1.25320
245.66626,1.24124
245.42517,1.22899
245.18409,1.21804
244.94300,1.20996
244.70192,1.20628
244.46083,1.20727
244.21975,1.21126
243.97866,1.21542
243.73757,1.21748
243.49649,1.21636
243.25540,1.21124
243.01432,1.20195
242.77323,1.19096
242.53215,1.18313
242.29106,1.18186
242.04998,1.18584
241.80889,1.18995
241.56780,1.18890
241.32672,1.18099
241.08563,1.16940
240.84455,1.15995
240.60346,1.15674
240.36238,1.15937
240.12129,1.16425
239.88020,1.16821
239.63912,1.17025
239.39803,1.17021
239.15695,1.16743
238.91586,1.16156
238.67478,1.15410
238.43369,1.14821
238.19261,1.14649
237.95152,1.14898
237.71043,1.15342
237.46935,1.15742
237.22826,1.15991
236.98718,1.16088
236.74609,1.16089
236.50501,1.16089
236.26392,1.16155
236.02283,1.16249
235.78175,1.16264
235.54066,1.16130
235.29958,1.15895
235.05849,1.15773
234.81741,1.16068
234.57632,1.16972
234.33523,1.18391
234.09415,1.20066
233.85306,1.21833
233.61198,1.23671
233.37089,1.25563
233.12981,1.27458
232.88872,1.29334
232.64764,1.31174
232.40655,1.32926
232.16546,1.34546
231.92438,1.35984
231.68329,1.37076
231.44221,1.37656
231.20112,1.37944
230.96004,1.38655
230.71895,1.40493
230.47786,1.43474
230.23678,1.46890
229.99569,1.50045
229.75461,1.52727
229.51352,1.54932
229.27244,1.56703
229.03135,1.58549
228.79027,1.61635
228.54918,1.66725
228.30809,1.72471
228.06701,1.75337
227.82592,1.72662
227.58484,1.66040
227.34375,1.59858
227.10267,1.57280
226.86158,1.58509
226.62049,1.61468
226.37941,1.63401
226.13832,1.62478
225.89724,1.58627
225.65615,1.53121
225.41507,1.47611
225.17398,1.43451
224.93290,1.41307
224.69181,1.40946
224.45072,1.41469
224.20964,1.41959
223.96855,1.41992
223.72747,1.41534
223.48638,1.40574
223.24530,1.39086
223.00421,1.37232
222.76312,1.35415
222.52204,1.34154
222.28095,1.33796
222.03987,1.34136
221.79878,1.34378
221.55770,1.33663
221.31661,1.31750
221.07553,1.29087
220.83444,1.26375
220.59335,1.24161
220.35227,1.22687
220.11118,1.21891
219.87010,1.21506
219.62901,1.21129
219.38793,1.20366
219.14684,1.19028
218.90575,1.17296
218.66467,1.15629
218.42358,1.14461
218.18250,1.13886
217.94141,1.13602
217.70033,1.13162
217.45924,1.12339
217.21816,1.11289
216.97707,1.10382
216.73598,1.09920
216.49490,1.09953
216.25381,1.10276
216.01273,1.10558
215.77164,1.10515
215.53056,1.10027
215.28947,1.09157
215.04838,1.08090
214.80730,1.07013
214.56621,1.06075
214.32513,1.05387
214.08404,1.04982
213.84296,1.04752
213.60187,1.04513
213.36078,1.04218
213.11970,1.03998
212.87861,1.03941
212.63753,1.03896
212.39644,1.03602
212.15536,1.02964
211.91427,1.02153
211.67319,1.01412
211.43210,1.00867
211.19101,1.00526
210.94993,1.00361
210.70884,1.00312
210.46776,1.00255
210.22667,1.00008
209.98559,0.99443
209.74450,0.98631
209.50341,0.97876
209.26233,0.97538
209.02124,0.97757
208.78016,0.98292
208.53907,0.98639
208.29799,0.98422
208.05690,0.97756
207.81582,0.97102
207.57473,0.96758
207.33364,0.96623
207.09256,0.96427
206.85147,0.96041
206.61039,0.95503
206.36930,0.94867
206.12822,0.94177
205.88713,0.93565
205.64604,0.93242
205.40496,0.93313
205.16387,0.93640
204.92279,0.93917
204.68170,0.93915
204.44062,0.93604
204.19953,0.93080
203.95845,0.92466
203.71736,0.91959
203.47627,0.91878
203.23519,0.92521
202.99410,0.93799
202.75302,0.95022
202.51193,0.95298
202.27085,0.94348
202.02976,0.92712
201.78867,0.91138
201.54759,0.90059
201.30650,0.89495
201.06542,0.89246
200.82433,0.89133
200.58325,0.89091
200.34216,0.89115
200.10108,0.89148
199.85999,0.89091
199.61890,0.88883
199.37782,0.88536
199.13673,0.88107
198.89565,0.87643
198.65456,0.87156
198.41348,0.86619
198.17239,0.86035
197.93130,0.85488
197.69022,0.85080
197.44913,0.84806
197.20805,0.84554
196.96696,0.84257
196.72588,0.84000
196.48479,0.83913
196.24370,0.83988
196.00262,0.84019
195.76153,0.83739
195.52045,0.83035
195.27936,0.82121
195.03828,0.81470
194.79719,0.81490
194.55611,0.82200
194.31502,0.83177
194.07393,0.83847
193.83285,0.83864
193.59176,0.83286
193.35068,0.82438
193.10959,0.81619
192.86851,0.80941
192.62742,0.80448
192.38633,0.80249
192.14525,0.80420
191.90416,0.80837
191.66308,0.81214
191.42199,0.81317
191.18091,0.81080
190.93982,0.80579
190.69874,0.79980
190.45765,0.79461
190.21656,0.79092
189.97548,0.78805
189.73439,0.78510
189.49331,0.78214
189.25222,0.77990
189.01114,0.77881
188.77005,0.77863
188.52896,0.77868
188.28788,0.77817
188.04679,0.77651
187.80571,0.77357
187.56462,0.76942
187.32354,0.76373
187.08245,0.75623
186.84137,0.74783
186.60028,0.74061
186.35919,0.73637
186.11811,0.73541
185.87702,0.73687
185.63594,0.73960
185.39485,0.74265
185.15377,0.74532
184.91268,0.74677
184.67159,0.74569
184.43051,0.74088
184.18942,0.73242
183.94834,0.72213
183.70725,0.71258
183.46617,0.70563
183.22508,0.70175
182.98400,0.70026
182.74291,0.70020
182.50182,0.70124
182.26074,0.70361
182.01965,0.70729
181.77857,0.71145
181.53748,0.71472
181.29640,0.71592
181.05531,0.71445
180.81422,0.71044
180.57314,0.70449
180.33205,0.69774
180.09097,0.69175
179.84988,0.68745
179.60880,0.68412
179.36771,0.68028
179.12663,0.67581
178.88554,0.67226
178.64445,0.67079
178.40337,0.67079
178.16228,0.67081
177.92120,0.66984
177.68011,0.66741
177.43903,0.66339
177.19794,0.65842
176.95685,0.65418
176.71577,0.65246
176.47468,0.65364
176.23360,0.65606
175.99251,0.65715
175.75143,0.65542
175.51034,0.65134
175.26925,0.64662
175.02817,0.64307
174.78708,0.64178
174.54600,0.64251
174.30491,0.64393
174.06383,0.64474
173.82274,0.64453
173.58166,0.64356
173.34057,0.64221
173.09948,0.64076
172.85840,0.63930
172.61731,0.63767
172.37623,0.63557
172.13514,0.63272
171.89406,0.62884
171.65297,0.62409
171.41188,0.61978
171.17080,0.61825
170.92971,0.62124
170.68863,0.62780
170.44754,0.63398
170.20646,0.63552
169.96537,0.63131
169.72429,0.62390
169.48320,0.61686
169.24211,0.61242
169.00103,0.61089
168.75994,0.61098
168.51886,0.61061
168.27777,0.60825
168.03669,0.60425
167.79560,0.60062
167.55451,0.59959
167.31343,0.60202
167.07234,0.60684
166.83126,0.61174
166.59017,0.61447
166.34909,0.61405
166.10800,0.61130
165.86692,0.60833
165.62583,0.60707
165.38474,0.60805
165.14366,0.61071
164.90257,0.61477
164.66149,0.62030
164.42040,0.62680
164.17932,0.63286
163.93823,0.63718
163.69714,0.63938
163.45606,0.63995
163.21497,0.63985
162.97389,0.63997
162.73280,0.64076
162.49172,0.64226
162.25063,0.64450
162.00955,0.64782
161.76846,0.65218
161.52737,0.65613
161.28629,0.65712
161.04520,0.65356
160.80412,0.64633
160.56303,0.63780
160.32195,0.63004
160.08086,0.62444
159.83977,0.62196
159.59869,0.62252
159.35760,0.62438
159.11652,0.62537
158.87543,0.62498
158.63435,0.62454
158.39326,0.62503
158.15218,0.62511
157.91109,0.62201
157.67000,0.61442
157.42892,0.60410
157.18783,0.59441
156.94675,0.58762
156.70566,0.58338
156.46458,0.57954
156.22349,0.57429
155.98240,0.56788
155.74132,0.56213
155.50023,0.55841
155.25915,0.55653
155.01806,0.55505
154.77698,0.55250
154.53589,0.54831
154.29480,0.54314
154.05372,0.53817
153.81263,0.53378
153.57155,0.52937
153.33046,0.52461
153.08938,0.52040
152.84829,0.51800
152.60721,0.51737
152.36612,0.51715
152.12503,0.51615
151.88395,0.51493
151.64286,0.51542
151.40178,0.51904
151.16069,0.52513
150.91961,0.53081
150.67852,0.53241
150.43743,0.52792
150.19635,0.51907
149.95526,0.51067
149.71418,0.50696
149.47309,0.50897
149.23201,0.51464
148.99092,0.52093
148.74984,0.52589
148.50875,0.52966
148.26766,0.53352
148.02658,0.53808
147.78549,0.54228
147.54441,0.54443
147.30332,0.54392
147.06224,0.54182
146.82115,0.53998
146.58006,0.53954
146.33898,0.54013
146.09789,0.54029
145.85681,0.53856
145.61572,0.53454
145.37464,0.52890
145.13355,0.52260
144.89247,0.51635
144.65138,0.51043
144.41029,0.50490
144.16921,0.49981
143.92812,0.49547
143.68704,0.49235
143.44595,0.49055
143.20487,0.48927
142.96378,0.48713
142.72269,0.48321
142.48161,0.47783
142.24052,0.47250
141.99944,0.46881
141.75835,0.46730
141.51727,0.46715
141.27618,0.46689
141.03510,0.46549
140.79401,0.46287
140.55292,0.45952
140.31184,0.45624
140.07075,0.45405
139.82967,0.45376
139.58858,0.45519
139.34750,0.45688
139.10641,0.45693
138.86532,0.45452
138.62424,0.45056
138.38315,0.44655
138.14207,0.44304
137.90098,0.43950
137.65990,0.43543
137.41881,0.43086
137.17772,0.42601
136.93664,0.42109
136.69555,0.41668
136.45447,0.41381
136.21338,0.41333
135.97230,0.41510
135.73121,0.41774
135.49013,0.41942
135.24904,0.41907
135.00795,0.41678
134.76687,0.41321
134.52578,0.40897
134.28470,0.40460
134.04361,0.40082
133.80253,0.39837
133.56144,0.39769
133.32035,0.39845
133.07927,0.39962
132.83818,0.39996
132.59710,0.39895
132.35601,0.39712
132.11493,0.39541
131.87384,0.39406
131.63276,0.39238
131.39167,0.38980
131.15058,0.38665
130.90950,0.38388
130.66841,0.38202
130.42733,0.38092
130.18624,0.38037
129.94516,0.38039
129.70407,0.38102
129.46298,0.38200
129.22190,0.38286
128.98081,0.38314
128.73973,0.38267
128.49864,0.38167
128.25756,0.38067
128.01647,0.38031
127.77539,0.38126
127.53430,0.38386
127.29321,0.38744
127.05213,0.38999
126.81104,0.38944
126.56996,0.38561
126.32887,0.38051
126.08779,0.37641
125.84670,0.37391
125.60561,0.37196
125.36453,0.36945
125.12344,0.36663
124.88236,0.36462
124.64127,0.36377
124.40019,0.36320
124.15910,0.36209
123.91802,0.36079
123.67693,0.36024
123.43584,0.36076
123.19476,0.36196
122.95367,0.36354
122.71259,0.36561
122.47150,0.36832
122.23042,0.37121
121.98933,0.37309
121.74824,0.37289
121.50716,0.37081
121.26607,0.36834
121.02499,0.36690
120.78390,0.36706
120.54282,0.36883
120.30173,0.37211
120.06065,0.37680
119.81956,0.38255
119.57847,0.38841
119.33739,0.39296
119.09630,0.39548
118.85522,0.39691
118.61413,0.39937
118.37305,0.40434
118.13196,0.41151
117.89087,0.41933
117.64979,0.42636
117.40870,0.43201
117.16762,0.43659
116.92653,0.44122
116.68545,0.44778
116.44436,0.45818
116.20327,0.47270
115.96219,0.48879
115.72110,0.50209
115.48002,0.50975
115.23893,0.51307
114.99785,0.51650
114.75676,0.52373
114.51568,0.53437
114.27459,0.54448
114.03350,0.55033
113.79242,0.55118
113.55133,0.54884
113.31025,0.54572
113.06916,0.54377
112.82808,0.54394
112.58699,0.54595
112.34590,0.54827
112.10482,0.54890
111.86373,0.54674
111.62265,0.54215
111.38156,0.53602
111.14048,0.52883
110.89939,0.52105
110.65831,0.51387
110.41722,0.50851
110.17613,0.50463
109.93505,0.50036
109.69396,0.49433
109.45288,0.48734
109.21179,0.48135
108.97071,0.47746
108.72962,0.47510
108.48853,0.47270
108.24745,0.46845
108.00636,0.46099
107.76528,0.45030
107.52419,0.43824
107.28311,0.42785
107.04202,0.42144
106.80094,0.41903
106.55985,0.41873
106.31876,0.41848
106.07768,0.41714
105.83659,0.41412
105.59551,0.40882
105.35442,0.40114
105.11334,0.39199
104.87225,0.38287
104.63116,0.37456
104.39008,0.36662
104.14899,0.35832
103.90791,0.35003
103.66682,0.34316
103.42574,0.33903
103.18465,0.33797
102.94357,0.33931
102.70248,0.34183
102.46139,0.34416
102.22031,0.34521
101.97922,0.34446
101.73814,0.34231
101.49705,0.34045
101.25597,0.34124
101.01488,0.34596
100.77379,0.35323
100.53271,0.35940
100.29162,0.36114
100.05054,0.35800
99.80945,0.35237
99.56837,0.34726
99.32728,0.34410
99.08620,0.34227
98.84511,0.34046
98.60402,0.33839
98.36294,0.33709
98.12185,0.33784
97.88077,0.34094
97.63968,0.34576
97.39860,0.35143
97.15751,0.35725
96.91642,0.36269
96.67534,0.36717
96.43425,0.37019
96.19317,0.37179
95.95208,0.37287
95.71100,0.37447
95.46991,0.37660
95.22882,0.37835
94.98774,0.37919
94.74665,0.37955
94.50557,0.37976
94.26448,0.37909
94.02340,0.37651
93.78231,0.37249
93.54123,0.36958
93.30014,0.37081
93.05905,0.37721
92.81797,0.38674
92.57688,0.39579
92.33580,0.40192
92.09471,0.40458
91.85363,0.40354
91.61254,0.39801
91.37145,0.38829
91.13037,0.37713
90.88928,0.36813
90.64820,0.36297
90.40711,0.36076
90.16603,0.35959
89.92494,0.35818
89.68386,0.35626
89.44277,0.35437
89.20168,0.35347
88.96060,0.35428
88.71951,0.35642
88.47843,0.35807
88.23734,0.35652
87.99626,0.34992
87.75517,0.33893
87.51408,0.32647
87.27300,0.31588
87.03191,0.30938
86.79083,0.30753
86.54974,0.30897
86.30866,0.31094
86.06757,0.31099
85.82649,0.30848
85.58540,0.30409
85.34431,0.29864
85.10323,0.29269
84.86214,0.28725
84.62106,0.28391
84.37997,0.28393
84.13889,0.28688
83.89780,0.29037
83.65671,0.29161
83.41563,0.28976
83.17454,0.28655
82.93346,0.28456
82.69237,0.28500
82.45129,0.28685
82.21020,0.28796
81.96912,0.28694
81.72803,0.28438
81.48694,0.28275
81.24586,0.28493
81.00477,0.29241
80.76369,0.30436
80.52260,0.31822
80.28152,0.33124
80.04043,0.34187
79.79934,0.34994
79.55826,0.35588
79.31717,0.35983
79.07609,0.36147
78.83500,0.36118
78.59392,0.36092
78.35283,0.36303
78.11174,0.36782
77.87066,0.37305
77.62957,0.37654
77.38849,0.37861
77.14740,0.38085
76.90632,0.38339
76.66523,0.38441
76.42415,0.38230
76.18306,0.37765
75.94197,0.37310
75.70089,0.37200
75.45980,0.37647
75.21872,0.38601
74.97763,0.39782
74.73655,0.40931
74.49546,0.42032
74.25437,0.43202
74.01329,0.44388
73.77220,0.45325
73.53112,0.45879
73.29003,0.46295
73.04895,0.46922
72.80786,0.47776
72.56678,0.48521
72.32569,0.48873
72.08460,0.48858
71.84352,0.48654
71.60243,0.48371
71.36135,0.48077
71.12026,0.47927
70.87918,0.48019
70.63809,0.48144
70.39700,0.47881
70.15592,0.47023
69.91483,0.45772
69.67375,0.44499
69.43266,0.43457
69.19158,0.42718
68.95049,0.42211
68.70941,0.41754
68.46832,0.41164
68.22723,0.40425
67.98615,0.39676
67.74506,0.38967
67.50398,0.38157
67.26289,0.37123
67.02181,0.35961
66.78072,0.34892
66.53963,0.34037
66.29855,0.33386
66.05746,0.32885
65.81638,0.32473
65.57529,0.32093
65.33421,0.31760
65.09312,0.31556
64.85204,0.31483
64.61095,0.31426
64.36986,0.31319
64.12878,0.31233
63.88769,0.31173
63.64661,0.30971
63.40552,0.30512
63.16444,0.29921
62.92335,0.29359
62.68226,0.28842
62.44118,0.28332
62.20009,0.27838
61.95901,0.27348
61.71792,0.26838
61.47684,0.26381
61.23575,0.26088
60.99467,0.25913
60.75358,0.25672
60.51249,0.25227
60.27141,0.24584
60.03032,0.23883
59.78924,0.23345
59.54815,0.23135
59.30707,0.23222
59.06598,0.23396
58.82489,0.23410
58.58381,0.23078
58.34272,0.22385
58.10164,0.21529
57.86055,0.20784
57.61947,0.20315
57.37838,0.20150
57.13729,0.20200
56.89621,0.20280
56.65512,0.20226
56.41404,0.20006
56.17295,0.19699
55.93187,0.19427
55.69078,0.19321
55.44970,0.19482
55.20861,0.19901
54.96752,0.20426
54.72644,0.20820
54.48535,0.20950
54.24427,0.20924
54.00318,0.20956
53.76210,0.21131
53.52101,0.21348
53.27992,0.21463
53.03884,0.21401
52.79775,0.21163
52.55667,0.20756
52.31558,0.20151
52.07450,0.19348
51.83341,0.18461
51.59233,0.17715
51.35124,0.17412
51.11015,0.17851
50.86907,0.19143
50.62798,0.21029
50.38690,0.22973
50.14581,0.24506
49.90473,0.25490
49.66364,0.26076
49.42255,0.26493
49.18147,0.26871
48.94038,0.27171
48.69930,0.27186
48.45821,0.26640
48.21713,0.25390
47.97604,0.23581
47.73496,0.21608
47.49387,0.19965
47.25278,0.19030
47.01170,0.18807
46.77061,0.18889
46.52953,0.18813
46.28844,0.18492
46.04736,0.18213
45.80627,0.18233
45.56518,0.18498
45.32410,0.18718
45.08301,0.18608
44.84193,0.18094
44.60084,0.17367
44.35976,0.16787
44.11867,0.16660
43.87759,0.17044
43.63650,0.17783
43.39541,0.18675
43.15433,0.19548
42.91324,0.20169
42.67216,0.20248
42.43107,0.19628
42.18999,0.18381
41.94890,0.16769
41.70781,0.15325
41.46673,0.14828
41.22564,0.15771
40.98456,0.17695
40.74347,0.19354
40.50239,0.19688
40.26130,0.18631
40.02022,0.17042
39.77913,0.15867
39.53804,0.15417
39.29696,0.15438
39.05587,0.15646
38.81479,0.15985
38.57370,0.16440
38.33262,0.16840
38.09153,0.17058
37.85044,0.17297
37.60936,0.17894
37.36827,0.18791
37.12719,0.19366
36.88610,0.18864
36.64502,0.17000
36.40393,0.14346
36.16284,0.12203
35.92176,0.11723
35.68067,0.12922
35.43959,0.14741
35.19850,0.16219
34.95742,0.17338
34.71633,0.18676
34.47525,0.20519
34.23416,0.22402
33.99307,0.23225
33.75199,0.21779
33.51090,0.17687
33.26982,0.12304
33.02873,0.08360
32.78765,0.07949
32.54656,0.10677
32.30547,0.14328
32.06439,0.16787
31.82330,0.16894
31.58222,0.14401
31.34113,0.09996
31.10005,0.05283
30.85896,0.01844
30.61788,-0.00123
30.37679,-0.01662
30.13570,-0.03689
29.89462,-0.06395
29.65353,-0.09473
29.41245,-0.12313
29.17136,-0.14149
28.93028,-0.14620
28.68919,-0.14211
28.44810,-0.13907
28.20702,-0.14546
27.96593,-0.16661
27.72485,-0.20565
27.48376,-0.25816
27.24268,-0.30805
27.00159,-0.33739
26.76051,-0.34496
26.51942,-0.35072
26.27833,-0.37824
26.03725,-0.43535
25.79616,-0.51173
25.55508,-0.58823
25.31399,-0.63537
25.07291,-0.62260
24.83182,-0.55974
24.59073,-0.49699
24.34965,-0.47477
24.10856,-0.50079
23.86748,-0.56230
23.62639,-0.64661
23.38531,-0.75140
23.14422,-0.87339
22.90314,-0.99097
22.66205,-1.05823
22.42096,-1.01505
22.17988,-0.86455
21.93879,-0.71141
21.69771,-0.64050
21.45662,-0.65766
21.21554,-0.70893
20.97445,-0.74121
20.73336,-0.74464
20.49228,-0.72257
20.25119,-0.68160
20.01011,-0.63826
19.76902,-0.59785
19.52794,-0.56586
19.28685,-0.56998
19.04576,-0.63506
18.80468,-0.73500
18.56359,-0.79695
18.32251,-0.79587
18.08142,-0.77921
17.84034,-0.80741
17.59925,-0.90258
17.35817,-0.96766
17.11708,-0.87047
16.87599,-0.79197
16.63491,-0.85458
16.39382,-0.97520
16.15274,-0.99305
15.91165,-0.97436
15.67057,-0.99278
15.42948,-1.01603
15.18839,-0.96305
14.94731,-0.85682
14.70622,-0.82319
14.46514,-0.90465
14.22405,-1.00566
13.98297,-0.98910
13.74188,-0.87400
13.50080,-0.72159
13.25971,-0.56780
13.01862,-0.45825
12.77754,-0.41914
12.53645,-0.44655
12.29537,-0.53408
12.05428,-0.67542
11.81320,-0.82534
11.57211,-0.88643
11.33102,-0.80594
11.08994,-0.66554
10.84885,-0.54725
10.60777,-0.47697
10.36668,-0.43644
10.12560,-0.39640
9.88451,-0.34601
9.64343,-0.29673
9.40234,-0.27165
9.16125,-0.29106
8.92017,-0.35450
8.67908,-0.43342
8.43800,-0.48975
8.19691,-0.51483
7.95583,-0.53411
7.71474,-0.57001
7.47365,-0.62377
7.23257,-0.66637
6.99148,-0.64968
6.75040,-0.57821
6.50931,-0.54284
6.26823,-0.61376
6.02714,-0.76836
5.78606,-0.88977
5.54497,-0.86271
5.30388,-0.72687
5.06280,-0.57399
4.82171,-0.46367
4.58063,-0.40920
4.33954,-0.38946
4.09846,-0.37890
3.85737,-0.38470
3.61628,-0.43650
3.37520,-0.54110
3.13411,-0.66277
2.89303,-0.74872
2.65194,-0.77704
2.41086,-0.75573
2.16977,-0.69602
1.92869,-0.61437
1.68760,-0.53691
1.44651,-0.48859
1.20543,-0.47883
0.96434,-0.49022
0.72326,-0.48601
0.48217,-0.44067
0.24109,-0.36246
-0.00000,-0.27531
